Wavelength (nm),Intensity
199.7811,-4.99
200.3375,-3.07
200.8943,38.12
201.4515,-9.19
202.0091,59.06
202.5672,-14.12
203.1256,-8.83
203.6844,-6.42
204.2437,-9.36
204.8033,-12.77
205.3634,-14.36
205.9238,-10.64
206.4847,-8.16
207.0460,-13.16
207.6077,-9.74
208.1698,-1.86
208.7323,-10.04
209.2952,-2.23
209.8585,-5.48
210.4222,-3.30
210.9863,-0.14
211.5509,-2.22
212.1158,-10.86
212.6812,-11.97
213.2469,7.95
213.8131,-6.74
214.3797,-2.09
214.9467,6.53
215.5141,-4.44
216.0818,-3.97
216.6501,1.49
217.2187,10.70
217.7877,-15.30
218.3571,-4.87
218.9270,-13.91
219.4972,-8.38
220.0679,-10.58
220.6389,-6.54
221.2104,-10.91
221.7823,-4.99
222.3545,-11.65
222.9272,-13.14
223.5003,-4.16
224.0738,-10.57
224.6477,-9.65
225.2221,-15.07
225.7968,-9.41
226.3719,-4.93
226.9475,-2.69
227.5234,-8.15
228.0998,-3.51
228.6765,18.49
229.2537,-12.16
229.8313,-1.57
230.4093,-6.63
230.9877,-12.77
231.5665,-7.42
232.1457,-6.53
232.7253,-9.38
233.3053,-6.12
233.8858,-0.66
234.4666,-4.54
235.0478,-0.74
235.6295,-10.79
236.2116,15.35
236.7940,-3.89
237.3769,-2.15
237.9602,-5.75
238.5439,-7.71
239.1280,-6.51
239.7125,-11.07
240.2974,-8.41
240.8827,-8.89
241.4685,22.88
242.0546,-9.89
242.6411,1.33
243.2281,-1.47
243.8154,-1.95
244.4032,-8.07
244.9914,-9.20
245.5800,-11.01
246.1689,-9.32
246.7583,-10.76
247.3481,-2.90
247.9383,-2.89
248.5290,-13.13
249.1200,-8.37
249.7114,-6.22
250.3032,-10.58
250.8955,-13.98
251.4881,-6.76
252.0812,-3.39
252.6747,-10.64
253.2685,-6.83
253.8628,-16.12
254.4575,-4.76
255.0526,-1.22
255.6481,9.59
256.2440,-7.62
256.8403,13.35
257.4370,1.72
258.0341,-3.73
258.6316,-3.94
259.2296,-13.30
259.8279,-6.64
260.4266,-6.93
261.0258,-3.19
261.6254,-7.46
262.2253,0.17
262.8257,-6.97
263.4265,-7.63
264.0276,-2.70
264.6292,-11.44
265.2312,-8.08
265.8336,-7.29
266.4364,-12.38
267.0396,-12.37
267.6432,-6.25
268.2473,-7.46
268.8517,-13.44
269.4565,-10.17
270.0618,-9.25
270.6674,-3.04
271.2735,-2.47
271.8799,-6.95
272.4868,-11.62
273.0941,-6.70
273.7017,-10.97
274.3098,-8.03
274.9183,-12.00
275.5272,-6.47
276.1364,-4.62
276.7461,-8.25
277.3562,-5.17
277.9667,-5.93
278.5776,-6.79
279.1890,-8.63
279.8007,-9.65
280.4128,-2.80
281.0253,-5.62
281.6382,-7.12
282.2516,-5.52
282.8653,-8.11
283.4795,-9.58
284.0940,-6.11
284.7090,-13.37
285.3243,-10.42
285.9401,-14.19
286.5562,-9.47
287.1728,-0.03
287.7898,-2.45
288.4071,-12.22
289.0249,20.68
289.6431,-7.60
290.2617,-5.07
290.8806,1.19
291.5001,0.33
292.1198,13.50
292.7400,-11.32
293.3606,-1.54
293.9816,-9.68
294.6030,-14.68
295.2249,-9.24
295.8470,-4.50
296.4697,-7.17
297.0927,-5.94
297.7161,-0.74
298.3399,-6.47
298.9641,-9.23
299.5887,-10.25
300.2138,-13.95
300.8392,-1.24
301.4650,0.58
302.0912,-4.72
302.7179,6.72
303.3449,-4.04
303.9724,-3.40
304.6002,-11.98
305.2284,-10.62
305.8571,-9.42
306.4861,-0.98
307.1155,-14.35
307.7454,-4.94
308.3756,-9.99
309.0063,-7.31
309.6373,-8.27
310.2687,-8.79
310.9006,-1.76
311.5328,-8.59
312.1655,-4.97
312.7985,-12.94
313.4319,-2.28
314.0658,-10.10
314.7000,-5.61
315.3347,0.07
315.9697,-4.91
316.6052,-12.75
317.2410,-8.41
317.8772,-7.18
318.5139,-6.35
319.1509,-5.70
319.7884,-14.36
320.4262,-10.85
321.0644,-8.60
321.7031,-11.63
322.3421,-20.75
322.9815,-12.09
323.6213,-7.36
324.2616,-7.38
324.9022,6.48
325.5432,-5.23
326.1846,-12.70
326.8265,29.84
327.4687,-10.35
328.1113,-7.70
328.7543,-7.67
329.3977,-0.96
330.0415,-14.25
330.6857,-8.50
331.3303,-9.44
331.9753,-5.29
332.6207,-6.51
333.2665,-2.62
333.9127,-8.27
334.5593,-11.21
335.2063,-4.68
335.8536,-13.78
336.5014,-10.32
337.1496,-10.06
337.7981,-5.94
338.4471,-11.39
339.0965,-6.32
339.7462,-5.36
340.3964,-11.50
341.0469,46.60
341.6978,-1.90
342.3492,-4.30
343.0009,-4.54
343.6530,-8.12
344.3055,-7.90
344.9584,-11.60
345.6117,-11.59
346.2654,-5.97
346.9195,-3.94
347.5740,-10.29
348.2289,-11.11
348.8842,-9.40
349.5398,-14.99
350.1959,-12.30
350.8523,-8.05
351.5092,-15.35
352.1664,-12.08
352.8241,-0.70
353.4821,-4.44
354.1405,-9.07
354.7993,-4.63
355.4585,-4.55
356.1181,-14.20
356.7781,-7.47
357.4385,-2.41
358.0992,1.58
358.7604,-15.65
359.4219,27.60
360.0839,-4.37
360.7462,1.94
361.4090,16.47
362.0721,-9.72
362.7356,18.77
363.3995,-15.13
364.0638,-3.89
364.7285,-0.35
365.3935,-8.82
366.0590,-9.23
366.7248,-5.58
367.3911,-3.95
368.0577,-4.04
368.7247,-4.96
369.3921,-9.91
370.0599,10.70
370.7281,-5.41
371.3967,-1.93
372.0656,-9.31
372.7350,-5.90
373.4047,-10.56
374.0749,-9.34
374.7454,-9.02
375.4163,-5.14
376.0876,-3.95
376.7592,-6.37
377.4313,-4.39
378.1038,-8.92
378.7766,-4.40
379.4498,-6.95
380.1234,-6.79
380.7975,-5.55
381.4718,-5.42
382.1466,-15.78
382.8218,-4.74
383.4973,-5.93
384.1732,-5.18
384.8495,-6.74
385.5263,-2.78
386.2033,-9.32
386.8808,-9.32
387.5587,-8.34
388.2369,-12.12
388.9156,-10.68
389.5946,-5.10
390.2740,-6.14
390.9537,-1.40
391.6339,-0.02
392.3145,-3.75
392.9954,-8.42
393.6767,-7.43
394.3584,0.09
395.0405,-11.29
395.7230,-8.13
396.4058,-3.62
397.0891,-5.70
397.7726,-7.54
398.4566,8.00
399.1410,-8.76
399.8258,0.49
400.5109,-4.61
401.1964,-14.18
401.8824,-10.41
402.5686,-10.01
403.2553,-9.59
403.9424,-5.01
404.6298,-12.84
405.3176,-9.59
406.0058,-7.84
406.6944,-4.37
407.3833,-10.40
408.0726,-6.58
408.7624,-9.00
409.4525,-5.17
410.1429,-4.19
410.8338,-11.12
411.5250,-16.56
412.2166,-7.55
412.9086,-8.45
413.6009,-9.99
414.2937,-4.20
414.9868,-9.55
415.6803,-3.47
416.3742,-0.48
417.0684,-6.14
417.7631,-13.32
418.4580,-6.28
419.1534,-7.14
419.8492,-9.01
420.5453,-4.71
421.2419,14.48
421.9387,-13.59
422.6360,7.29
423.3336,-4.88
424.0316,-12.71
424.7300,-10.20
425.4288,-11.86
426.1280,-13.58
426.8275,-12.05
427.5274,-2.71
428.2276,-15.18
428.9283,-8.73
429.6293,-8.57
430.3307,-9.47
431.0324,-6.57
431.7346,-5.77
432.4371,-3.89
433.1400,-6.90
433.8432,5.09
434.5468,-8.76
435.2508,-7.43
435.9552,-3.41
436.6599,-10.87
437.3651,-12.46
438.0706,-6.80
438.7764,-11.66
439.4826,-10.69
440.1892,-4.38
440.8962,-14.40
441.6035,-11.01
442.3112,-3.82
443.0193,-10.96
443.7278,-8.20
444.4366,16.98
445.1458,0.39
445.8554,-8.41
446.5653,-4.20
447.2756,-1.68
447.9863,-11.91
448.6973,-3.99
449.4087,-6.45
450.1205,-9.14
450.8326,-6.59
451.5451,-9.35
452.2580,-15.56
452.9713,-7.08
453.6848,-5.63
454.3988,-12.79
455.1132,-5.12
455.8279,-1.36
456.5430,-12.48
457.2584,-11.26
457.9742,-7.67
458.6904,-11.28
459.4069,-10.14
460.1238,-7.57
460.8411,-12.12
461.5587,-13.39
462.2767,-7.97
462.9951,-12.79
463.7138,-7.10
464.4329,-8.05
465.1524,-11.77
465.8722,-11.67
466.5924,-6.43
467.3129,-10.91
468.0338,-11.30
468.7551,-2.39
469.4767,-0.75
470.1987,-10.70
470.9211,-0.96
471.6438,-6.69
472.3669,-16.34
473.0903,-7.54
473.8141,-10.54
474.5383,-12.35
475.2628,-6.18
475.9877,6.10
476.7129,-4.79
477.4385,8.25
478.1645,-4.36
478.8908,-6.65
479.6175,-4.15
480.3445,-7.49
481.0719,-15.32
481.7997,-6.33
482.5278,-10.04
483.2563,-11.50
483.9851,-1.56
484.7143,-6.49
485.4438,-13.23
486.1737,-5.26
486.9040,-8.05
487.6346,-9.62
488.3656,-14.21
489.0969,16.50
489.8286,-13.47
490.5606,-4.64
491.2930,-2.80
492.0258,-7.71
492.7589,-8.71
493.4923,60.73
494.2261,27.83
494.9603,-8.20
495.6948,1.21
496.4297,-12.53
497.1649,8.84
497.9005,-11.25
498.6364,-3.71
499.3727,4.37
500.1094,17.69
500.8464,-16.22
501.5837,-4.86
502.3214,-4.17
503.0595,-11.32
503.7979,-14.11
504.5366,-6.10
505.2757,-7.31
506.0152,-8.99
506.7550,-13.98
507.4951,-8.63
508.2356,-13.16
508.9765,-5.36
509.7177,-15.47
510.4592,-12.18
511.2011,-11.31
511.9434,-0.71
512.6860,-2.56
513.4290,15.47
514.1722,-12.94
514.9158,-0.20
515.6599,-0.23
516.4042,-8.41
517.1489,-11.48
517.8939,-9.99
518.6393,26.40
519.3850,-9.46
520.1310,-1.53
520.8774,-5.35
521.6242,-11.34
522.3713,-3.28
523.1188,-12.87
523.8666,-14.18
524.6147,-11.10
525.3632,-0.30
526.1120,-7.33
526.8612,-2.43
527.6107,-10.34
528.3605,-11.17
529.1108,-6.55
529.8613,-9.30
530.6122,-14.45
531.3634,-6.21
532.1150,-7.15
532.8669,-10.26
533.6191,-14.18
534.3717,-16.89
535.1246,-12.90
535.8779,-6.82
536.6315,-0.37
537.3855,-10.11
538.1398,26.19
538.8944,-3.41
539.6494,3.11
540.4047,-8.15
541.1603,-8.06
541.9163,-6.70
542.6726,-7.67
543.4293,-9.46
544.1863,-7.03
544.9437,-3.60
545.7013,-6.41
546.4594,-6.13
547.2177,-10.92
547.9764,-13.85
548.7354,-6.16
549.4948,-13.20
550.2544,-3.94
551.0145,-14.26
551.7748,-5.71
552.5355,-4.65
553.2965,-5.77
554.0579,-15.75
554.8196,-14.09
555.5816,-6.74
556.3440,-6.27
557.1067,-2.79
557.8697,-10.99
558.6331,-11.27
559.3968,-5.27
560.1608,-5.94
560.9252,-6.49
561.6898,-7.14
562.4549,-7.90
563.2202,-7.99
563.9859,-13.80
564.7519,-11.09
565.5182,-8.32
566.2849,-12.84
567.0519,-12.11
567.8193,-4.20
568.5869,-8.98
569.3549,-12.75
570.1232,3.56
570.8919,-2.04
571.6608,-6.80
572.4302,-16.12
573.1998,26.70
573.9697,-6.24
574.7400,-11.35
575.5106,-4.84
576.2816,-0.62
577.0528,-7.94
577.8244,-10.47
578.5963,-14.59
579.3685,-9.64
580.1411,-3.50
580.9140,-7.20
581.6872,-9.00
582.4608,0.34
583.2346,-3.14
584.0088,-4.84
584.7833,-0.05
585.5581,-14.10
586.3333,-14.75
587.1087,-4.92
587.8845,-2.00
588.6606,-9.29
589.4371,-9.06
590.2138,-6.26
590.9909,-5.24
591.7683,-3.99
592.5460,-10.71
593.3240,-8.50
594.1024,-1.47
594.8810,-8.31
595.6600,-8.96
596.4394,-9.67
597.2190,-10.15
597.9990,-9.59
598.7792,-7.53
599.5598,-6.00
600.3407,-8.27
601.1219,-6.75
601.9034,-6.23
602.6853,-10.42
603.4675,-7.09
604.2499,-6.04
605.0328,-10.38
605.8159,-1.77
606.5993,-7.64
607.3831,-8.45
608.1671,-1.46
608.9515,-2.35
609.7361,-7.64
610.5212,-7.07
611.3065,-8.21
612.0921,-4.43
612.8781,-3.27
613.6643,-6.44
614.4509,31.14
615.2377,-11.59
616.0249,-4.39
616.8124,-10.06
617.6002,-16.04
618.3883,-13.96
619.1768,-11.92
619.9655,-12.95
620.7545,-6.06
621.5439,-3.94
622.3336,-6.03
623.1235,-3.60
623.9138,-13.32
624.7044,-9.92
625.4953,-9.14
626.2865,-5.72
627.0780,-12.75
627.8698,-8.06
628.6619,-8.83
629.4544,-10.14
630.2471,-7.98
631.0402,-4.74
631.8335,-1.93
632.6271,-12.82
633.4211,-10.07
634.2154,-10.72
635.0099,-6.28
635.8048,-8.31
636.6000,-7.37
637.3954,-0.10
638.1912,-10.46
638.9873,-4.51
639.7837,-2.46
640.5804,-3.35
641.3774,-6.95
642.1747,-6.42
642.9723,-11.03
643.7701,-10.94
644.5684,-8.41
645.3668,-14.55
646.1656,-9.32
646.9647,-4.37
647.7641,-10.10
648.5638,-2.13
649.3638,-9.48
650.1641,-9.06
650.9647,-3.96
651.7655,-1.57
652.5667,-10.97
653.3682,20.08
654.1699,-8.13
654.9720,-2.92
655.7744,-5.44
656.5770,-5.73
657.3800,-12.06
658.1832,-2.01
658.9868,-5.65
659.7906,-6.85
660.5947,-3.86
661.3992,-11.01
662.2039,-1.85
663.0089,-6.54
663.8142,-8.99
664.6198,-4.48
665.4257,-7.22
666.2319,-9.51
667.0383,-2.81
667.8451,-3.39
668.6522,19.74
669.4595,7.49
670.2672,-1.49
671.0751,-3.65
671.8833,8.47
672.6918,-12.32
673.5006,-6.63
674.3097,-9.05
675.1190,-6.06
675.9287,-11.51
676.7386,-5.73
677.5489,-9.74
678.3594,-5.09
679.1702,-5.79
679.9813,-10.43
680.7927,-7.68
681.6044,-2.58
682.4163,-5.38
683.2286,-8.89
684.0411,-1.94
684.8539,-2.25
685.6670,-8.86
686.4803,-4.87
687.2940,-10.09
688.1080,-7.51
688.9222,-6.64
689.7367,-4.41
690.5515,-3.36
691.3665,-5.69
692.1819,-9.33
692.9975,-7.27
693.8134,-3.41
694.6296,-9.81
695.4461,-5.86
696.2629,-8.46
697.0799,-7.83
697.8972,-6.72
698.7148,-11.32
699.5327,-13.84
700.3508,-3.96
701.1693,-4.70
701.9880,-4.25
702.8069,15.57
703.6262,-6.16
704.4457,-2.49
705.2656,-1.45
706.0856,-11.50
706.9060,12.74
707.7266,-7.10
708.5475,-4.41
709.3688,-5.94
710.1902,-6.65
711.0120,-4.21
711.8340,-7.24
712.6562,-5.69
713.4788,-12.60
714.3016,-7.05
715.1248,-4.35
715.9481,-5.09
716.7717,-8.47
717.5956,-2.50
718.4199,-0.86
719.2443,-17.52
720.0690,-5.75
720.8940,-10.11
721.7193,-16.06
722.5449,-4.83
723.3707,-7.43
724.1967,-7.19
725.0231,-9.64
725.8497,-7.49
726.6766,-13.68
727.5037,-11.31
728.3311,-9.38
729.1588,-10.87
729.9868,-0.01
730.8150,-10.73
731.6434,-6.60
732.4722,-12.87
733.3012,-4.23
734.1305,-19.15
734.9600,-8.24
735.7898,-10.67
736.6199,-12.91
737.4502,-7.96
738.2808,-13.32
739.1116,-10.09
739.9427,-6.35
740.7742,-3.70
741.6058,-7.65
742.4377,-7.59
743.2698,-12.06
744.1023,-10.19
744.9349,-5.74
745.7679,-3.45
746.6011,0.93
747.4346,-2.52
748.2682,16.29
749.1022,20.59
749.9365,-8.88
750.7710,32.57
751.6057,-7.43
752.4407,10.49
753.2760,2.71
754.1115,-0.15
754.9473,-12.63
755.7833,-9.78
756.6196,-14.90
757.4562,-12.10
758.2930,-7.80
759.1300,-10.82
759.9673,-16.30
760.8049,-9.78
761.6427,-13.34
762.4808,-11.44
763.3191,-14.10
764.1577,-11.71
764.9965,-5.69
765.8355,-7.69
766.6749,-8.49
767.5145,-10.13
768.3542,-7.04
769.1943,-4.76
770.0347,-9.77
770.8752,-0.02
771.7161,-3.10
772.5571,-3.97
773.3984,-7.68
774.2401,-11.55
775.0818,-13.73
775.9239,-7.43
776.7662,-9.52
777.6088,-1.28
778.4516,-6.89
779.2946,-6.24
780.1379,-11.98
780.9814,-6.67
781.8253,-6.20
782.6693,-10.28
783.5135,-7.82
784.3581,-11.04
785.2029,-8.35
786.0479,-8.21
786.8931,-5.51
787.7386,-15.84
788.5844,-19.91
789.4303,-1.76
790.2766,-8.26
791.1230,-12.48
791.9697,-4.48
792.8166,-10.86
793.6638,-10.82
794.5112,-9.34
795.3589,-8.22
796.2068,-12.09
797.0549,-7.17
797.9033,-14.62
798.7519,-13.06
799.6007,-7.55
800.4498,-3.31
