Wavelength (nm),Intensity
199.7811,-15.17
200.3375,-7.78
200.8943,-2.36
201.4515,-7.53
202.0091,-14.84
202.5672,-20.53
203.1256,-17.88
203.6844,-20.64
204.2437,-22.35
204.8033,-18.29
205.3634,-15.47
205.9238,-13.07
206.4847,-13.48
207.0460,-22.43
207.6077,-17.89
208.1698,-2.29
208.7323,-6.92
209.2952,-4.61
209.8585,18.04
210.4222,1.14
210.9863,6.83
211.5509,-9.31
212.1158,-21.53
212.6812,-20.54
213.2469,-11.48
213.8131,-15.34
214.3797,-11.90
214.9467,-15.24
215.5141,-10.50
216.0818,-16.92
216.6501,-13.70
217.2187,-17.98
217.7877,-15.63
218.3571,-10.57
218.9270,-15.95
219.4972,-8.23
220.0679,-12.72
220.6389,-11.05
221.2104,-17.44
221.7823,-11.78
222.3545,-17.84
222.9272,-18.36
223.5003,-8.58
224.0738,-14.77
224.6477,-14.25
225.2221,-20.27
225.7968,-14.62
226.3719,-10.26
226.9475,-6.36
227.5234,-9.21
228.0998,-3.88
228.6765,-4.53
229.2537,-13.51
229.8313,-16.51
230.4093,-20.47
230.9877,-19.76
231.5665,-8.91
232.1457,-2.90
232.7253,-2.92
233.3053,2.64
233.8858,-5.26
234.4666,-14.13
235.0478,-13.46
235.6295,-14.20
236.2116,-8.61
236.7940,-6.72
237.3769,-3.97
237.9602,-6.36
238.5439,-6.22
239.1280,-3.45
239.7125,-8.57
240.2974,-8.62
240.8827,-11.28
241.4685,-5.93
242.0546,-10.66
242.6411,-9.92
243.2281,-11.75
243.8154,-10.40
244.4032,-12.58
244.9914,-1.97
245.5800,-2.73
246.1689,-14.39
246.7583,21.77
247.3481,0.72
247.9383,3.06
248.5290,-4.56
249.1200,-5.90
249.7114,-15.53
250.3032,13.77
250.8955,-11.03
251.4881,0.68
252.0812,3.76
252.6747,-6.37
253.2685,-8.96
253.8628,-23.60
254.4575,-14.59
255.0526,-13.63
255.6481,-18.62
256.2440,-12.21
256.8403,-8.88
257.4370,-5.27
258.0341,-9.30
258.6316,-4.80
259.2296,-13.87
259.8279,-9.61
260.4266,-12.90
261.0258,-11.00
261.6254,-14.90
262.2253,-5.26
262.8257,-10.03
263.4265,-9.96
264.0276,-6.05
264.6292,-17.39
265.2312,-18.23
265.8336,-14.96
266.4364,-8.30
267.0396,-4.79
267.6432,-11.26
268.2473,35.72
268.8517,-3.37
269.4565,-6.24
270.0618,-10.05
270.6674,-9.22
271.2735,-10.20
271.8799,-12.43
272.4868,-11.79
273.0941,-5.17
273.7017,-12.56
274.3098,-13.30
274.9183,-18.06
275.5272,-19.38
276.1364,-11.69
276.7461,-8.03
277.3562,8.17
277.9667,-2.58
278.5776,5.21
279.1890,-2.37
279.8007,-9.49
280.4128,-7.59
281.0253,-12.94
281.6382,-15.46
282.2516,-14.00
282.8653,-15.67
283.4795,-15.49
284.0940,-10.15
284.7090,-15.63
285.3243,-10.08
285.9401,-9.17
286.5562,-5.38
287.1728,2.52
287.7898,-0.63
288.4071,-2.37
289.0249,-8.26
289.6431,-7.38
290.2617,-10.64
290.8806,-10.41
291.5001,-12.61
292.1198,-16.66
292.7400,-14.77
293.3606,-15.09
293.9816,-20.11
294.6030,-18.94
295.2249,-11.70
295.8470,-6.27
296.4697,-10.71
297.0927,-11.75
297.7161,-7.53
298.3399,-12.62
298.9641,-13.44
299.5887,-11.53
300.2138,-15.76
300.8392,-8.11
301.4650,-7.27
302.0912,-6.50
302.7179,-16.43
303.3449,-13.23
303.9724,-13.91
304.6002,-21.43
305.2284,-17.53
305.8571,-11.94
306.4861,-1.13
307.1155,-17.27
307.7454,2.75
308.3756,-9.00
309.0063,-6.25
309.6373,-8.55
310.2687,-9.78
310.9006,-2.71
311.5328,-8.69
312.1655,-3.94
312.7985,-12.30
313.4319,-3.70
314.0658,-14.68
314.7000,-13.31
315.3347,-8.74
315.9697,-13.14
316.6052,-18.62
317.2410,-11.42
317.8772,-8.53
318.5139,-7.65
319.1509,-7.91
319.7884,-17.93
320.4262,-15.37
321.0644,-13.46
321.7031,-16.77
322.3421,-26.09
322.9815,-17.15
323.6213,-10.29
324.2616,-9.20
324.9022,2.25
325.5432,-8.30
326.1846,-5.64
326.8265,-0.13
327.4687,-2.84
328.1113,-9.78
328.7543,-8.00
329.3977,-1.66
330.0415,-9.74
330.6857,-8.52
331.3303,-7.92
331.9753,-7.59
332.6207,-12.55
333.2665,-11.08
333.9127,-17.31
334.5593,-19.89
335.2063,-12.58
335.8536,-20.38
336.5014,-15.59
337.1496,-14.85
337.7981,-9.02
338.4471,-15.27
339.0965,-18.10
339.7462,-19.83
340.3964,-13.64
341.0469,-18.43
341.6978,-16.39
342.3492,-14.50
343.0009,-4.74
343.6530,-4.25
344.3055,-7.35
344.9584,-1.64
345.6117,-19.14
346.2654,-12.47
346.9195,0.09
347.5740,-4.26
348.2289,-18.82
348.8842,27.22
349.5398,-11.04
350.1959,-8.65
350.8523,-9.94
351.5092,-21.24
352.1664,-20.18
352.8241,-9.10
353.4821,-10.50
354.1405,-12.64
354.7993,-6.19
355.4585,-3.79
356.1181,-10.31
356.7781,-5.33
357.4385,-8.45
358.0992,-6.70
358.7604,-15.95
359.4219,-10.98
360.0839,-16.84
360.7462,-16.84
361.4090,-10.25
362.0721,-14.17
362.7356,-16.11
363.3995,-16.18
364.0638,-7.26
364.7285,-0.93
365.3935,-13.54
366.0590,16.57
366.7248,2.23
367.3911,8.34
368.0577,11.59
368.7247,-12.99
369.3921,-5.09
370.0599,-10.17
370.7281,-16.29
371.3967,-14.27
372.0656,-18.98
372.7350,-12.54
373.4047,-14.96
374.0749,-11.79
374.7454,-10.51
375.4163,-6.16
376.0876,-5.00
376.7592,-8.01
377.4313,-7.21
378.1038,-13.35
378.7766,-10.64
379.4498,-15.13
380.1234,-16.19
380.7975,-13.99
381.4718,-10.26
382.1466,-16.18
382.8218,-1.76
383.4973,0.51
384.1732,5.09
384.8495,-8.44
385.5263,-1.85
386.2033,-12.53
386.8808,-14.06
387.5587,-13.32
388.2369,-16.37
388.9156,-13.93
389.5946,-7.54
390.2740,-8.31
390.9537,-4.20
391.6339,-0.46
392.3145,-4.47
392.9954,-11.03
393.6767,-9.53
394.3584,-0.72
395.0405,-13.89
395.7230,-12.82
396.4058,-12.51
397.0891,-13.24
397.7726,-5.75
398.4566,-15.20
399.1410,-12.54
399.8258,-13.55
400.5109,-14.42
401.1964,-24.14
401.8824,-18.49
402.5686,-16.06
403.2553,-14.33
403.9424,-8.53
404.6298,-15.23
405.3176,-10.82
406.0058,-8.01
406.6944,-2.58
407.3833,-5.94
408.0726,-5.55
408.7624,-7.27
409.4525,-6.12
410.1429,-7.41
410.8338,-15.24
411.5250,-19.83
412.2166,-9.10
412.9086,-7.44
413.6009,-5.02
414.2937,5.66
414.9868,5.15
415.6803,14.69
416.3742,17.37
417.0684,4.92
417.7631,-11.70
418.4580,-15.64
419.1534,-22.26
419.8492,-21.58
420.5453,-11.51
421.2419,-8.95
421.9387,0.08
422.6360,21.32
423.3336,-16.51
424.0316,0.99
424.7300,-1.58
425.4288,-8.26
426.1280,-16.99
426.8275,-20.91
427.5274,-14.04
428.2276,-26.15
428.9283,-15.68
429.6293,-10.78
430.3307,-10.46
431.0324,-10.92
431.7346,-16.68
432.4371,-23.11
433.1400,-23.11
433.8432,-6.61
434.5468,2.44
435.2508,-22.90
435.9552,45.53
436.6599,-3.61
437.3651,-5.48
438.0706,-8.21
438.7764,-18.48
439.4826,-18.98
440.1892,-10.14
440.8962,-13.33
441.6035,-9.26
442.3112,-9.47
443.0193,-18.69
443.7278,-7.27
444.4366,-12.69
445.1458,-5.53
445.8554,-11.72
446.5653,-0.92
447.2756,4.71
447.9863,-6.64
448.6973,1.75
449.4087,-7.27
450.1205,-10.94
450.8326,-6.01
451.5451,-4.69
452.2580,-7.37
452.9713,3.41
453.6848,1.01
454.3988,-11.48
455.1132,-10.03
455.8279,-10.41
456.5430,-22.77
457.2584,-20.73
457.9742,-15.11
458.6904,-16.96
459.4069,-14.84
460.1238,-11.55
460.8411,-15.61
461.5587,-16.60
462.2767,-11.04
462.9951,-16.08
463.7138,-10.61
464.4329,-11.14
465.1524,-13.75
465.8722,-11.78
466.5924,-4.62
467.3129,-8.53
468.0338,-10.03
468.7551,-1.38
469.4767,-4.36
470.1987,-12.60
470.9211,-4.39
471.6438,-8.92
472.3669,-16.81
473.0903,-9.01
473.8141,-15.70
474.5383,-20.56
475.2628,-14.83
475.9877,-13.88
476.7129,-10.89
477.4385,-8.41
478.1645,-10.19
478.8908,-12.50
479.6175,-10.16
480.3445,-14.45
481.0719,-23.65
481.7997,-14.50
482.5278,-16.54
483.2563,-17.50
483.9851,-8.91
484.7143,-6.63
485.4438,-14.25
486.1737,-3.26
486.9040,-7.01
487.6346,-7.68
488.3656,-5.58
489.0969,-5.82
489.8286,-14.50
490.5606,-8.03
491.2930,-12.15
492.0258,-21.17
492.7589,-16.33
493.4923,-13.35
494.2261,-10.59
494.9603,-12.71
495.6948,-8.36
496.4297,-17.12
497.1649,-7.46
497.9005,-8.62
498.6364,-6.52
499.3727,-0.51
500.1094,-7.21
500.8464,-14.49
501.5837,-15.42
502.3214,-14.21
503.0595,-17.91
503.7979,-20.82
504.5366,-12.38
505.2757,-13.55
506.0152,-14.77
506.7550,-19.95
507.4951,-14.98
508.2356,-19.00
508.9765,-9.73
509.7177,-17.01
510.4592,-11.73
511.2011,-10.72
511.9434,-1.48
512.6860,-6.01
513.4290,-10.68
514.1722,-14.46
514.9158,-3.97
515.6599,-1.20
516.4042,-14.32
517.1489,13.43
517.8939,1.77
518.6393,-0.85
519.3850,-4.80
520.1310,-2.02
520.8774,-12.20
521.6242,-20.02
522.3713,-8.10
523.1188,-15.15
523.8666,-16.84
524.6147,-14.03
525.3632,-3.61
526.1120,-11.39
526.8612,-7.38
527.6107,-16.38
528.3605,-17.90
529.1108,-12.66
529.8613,-13.79
530.6122,-15.40
531.3634,-2.57
532.1150,-1.04
532.8669,-4.94
533.6191,3.32
534.3717,-15.68
535.1246,7.54
535.8779,-6.74
536.6315,1.91
537.3855,2.70
538.1398,3.78
538.8944,-4.10
539.6494,-1.81
540.4047,-12.93
541.1603,-12.41
541.9163,-10.02
542.6726,-10.03
543.4293,-12.03
544.1863,-9.81
544.9437,-6.75
545.7013,-10.58
546.4594,-11.46
547.2177,-16.71
547.9764,-19.30
548.7354,-10.40
549.4948,-16.18
550.2544,-7.54
551.0145,-20.70
551.7748,-13.77
552.5355,-12.38
553.2965,-10.16
554.0579,-11.91
554.8196,18.33
555.5816,1.33
556.3440,71.26
557.1067,84.04
557.8697,66.02
558.6331,103.94
559.3968,114.68
560.1608,110.33
560.9252,89.24
561.6898,30.25
562.4549,2.06
563.2202,1.29
563.9859,1.94
564.7519,-16.01
565.5182,29.67
566.2849,-3.21
567.0519,-4.91
567.8193,-10.44
568.5869,-11.87
569.3549,-5.09
570.1232,-19.23
570.8919,-9.53
571.6608,-15.43
572.4302,-8.72
573.1998,-2.24
573.9697,-10.84
574.7400,4.93
575.5106,-1.42
576.2816,2.85
577.0528,-10.03
577.8244,-1.96
578.5963,19.40
579.3685,-14.31
580.1411,3.29
580.9140,-11.62
581.6872,-13.09
582.4608,-3.35
583.2346,-6.61
584.0088,-7.39
584.7833,-7.93
585.5581,-11.14
586.3333,-22.15
587.1087,-2.88
587.8845,-1.01
588.6606,-4.68
589.4371,-2.87
590.2138,2.88
590.9909,6.73
591.7683,2.53
592.5460,-15.61
593.3240,-16.26
594.1024,-1.57
594.8810,-4.52
595.6600,-9.79
596.4394,13.60
597.2190,-2.93
597.9990,-3.41
598.7792,-5.85
599.5598,-7.81
600.3407,-12.15
601.1219,-11.31
601.9034,-10.18
602.6853,-14.49
603.4675,-12.18
604.2499,-12.18
605.0328,-17.10
605.8159,-8.24
606.5993,-13.55
607.3831,-12.26
608.1671,-1.13
608.9515,-0.84
609.7361,-8.55
610.5212,9.37
611.3065,-3.31
612.0921,5.18
612.8781,16.87
613.6643,-12.94
614.4509,9.60
615.2377,-3.06
616.0249,-10.36
616.8124,-18.47
617.6002,-23.23
618.3883,-22.20
619.1768,-17.97
619.9655,-18.89
620.7545,-11.76
621.5439,-8.22
622.3336,-8.11
623.1235,-2.28
623.9138,2.41
624.7044,-11.49
625.4953,-1.15
626.2865,-4.96
627.0780,-17.56
627.8698,-18.73
628.6619,-20.18
629.4544,-21.00
630.2471,-16.65
631.0402,-12.30
631.8335,-10.63
632.6271,-13.54
633.4211,-13.58
634.2154,-12.87
635.0099,-8.78
635.8048,-12.17
636.6000,-13.27
637.3954,-7.63
638.1912,-18.71
638.9873,-13.05
639.7837,-10.58
640.5804,-10.02
641.3774,-11.35
642.1747,-7.58
642.9723,-8.92
643.7701,-7.75
644.5684,-6.71
645.3668,-13.64
646.1656,-12.68
646.9647,-7.85
647.7641,-10.48
648.5638,-0.43
649.3638,-7.33
650.1641,2.52
650.9647,-2.18
651.7655,-0.08
652.5667,-2.43
653.3682,-9.13
654.1699,-13.08
654.9720,-11.26
655.7744,-15.10
656.5770,-14.19
657.3800,-15.06
658.1832,-17.18
658.9868,-12.11
659.7906,-15.03
660.5947,-12.60
661.3992,-20.66
662.2039,-12.21
663.0089,-14.25
663.8142,-17.08
664.6198,-9.83
665.4257,-10.47
666.2319,-14.45
667.0383,-13.32
667.8451,-15.77
668.6522,-15.10
669.4595,-10.77
670.2672,-15.99
671.0751,-15.99
671.8833,-12.13
672.6918,-14.84
673.5006,-14.55
674.3097,-13.52
675.1190,-9.14
675.9287,-15.09
676.7386,-10.54
677.5489,-16.65
678.3594,-13.68
679.1702,-15.25
679.9813,-19.10
680.7927,-14.55
681.6044,-7.07
682.4163,-8.11
683.2286,-10.82
684.0411,-3.53
684.8539,-4.13
685.6670,-11.85
686.4803,-9.60
687.2940,-17.07
688.1080,-16.15
688.9222,-14.61
689.7367,-9.83
690.5515,-3.36
691.3665,1.73
692.1819,1.87
692.9975,-5.93
693.8134,15.80
694.6296,-3.78
695.4461,-0.48
696.2629,-9.09
697.0799,1.87
697.8972,-6.65
698.7148,-12.21
699.5327,-17.79
700.3508,-10.68
701.1693,-13.67
701.9880,-14.35
702.8069,-12.30
703.6262,-11.85
704.4457,-17.30
705.2656,-9.13
706.0856,-7.90
706.9060,-7.04
707.7266,-0.98
708.5475,10.09
709.3688,3.35
710.1902,5.79
711.0120,9.47
711.8340,5.59
712.6562,2.08
713.4788,-11.69
714.3016,-13.05
715.1248,-14.83
715.9481,-16.75
716.7717,-18.74
717.5956,-10.02
718.4199,-6.39
719.2443,-22.49
720.0690,-10.96
720.8940,-15.79
721.7193,-21.43
722.5449,-8.90
723.3707,-9.82
724.1967,-7.82
725.0231,-8.79
725.8497,-5.59
726.6766,-10.94
727.5037,-8.13
728.3311,-6.62
729.1588,-9.37
729.9868,-0.54
730.8150,-13.19
731.6434,-9.49
732.4722,-14.48
733.3012,-3.23
734.1305,-15.51
734.9600,-4.10
735.7898,-8.55
736.6199,-14.51
737.4502,-13.59
738.2808,-20.94
739.1116,-17.13
739.9427,-11.18
740.7742,-5.70
741.6058,-7.59
742.4377,-6.78
743.2698,-11.85
744.1023,-11.75
744.9349,-10.24
745.7679,-12.93
746.6011,-16.06
747.4346,-14.82
748.2682,-9.62
749.1022,-15.89
749.9365,-14.78
750.7710,-12.07
751.6057,-14.79
752.4407,-12.19
753.2760,-9.41
754.1115,-6.09
754.9473,-15.07
755.7833,-11.31
756.6196,-18.09
757.4562,-16.97
758.2930,-12.82
759.1300,-13.79
759.9673,-15.72
760.8049,-5.58
761.6427,-7.77
762.4808,-7.28
763.3191,-13.25
764.1577,-14.91
764.9965,-11.82
765.8355,-15.05
766.6749,-16.06
767.5145,-17.61
768.3542,-14.23
769.1943,-11.44
770.0347,-17.27
770.8752,-10.21
771.7161,-8.09
772.5571,-12.79
773.3984,-16.14
774.2401,-19.92
775.0818,-19.47
775.9239,-7.89
776.7662,-5.05
777.6088,5.18
778.4516,7.36
779.2946,-0.18
780.1379,-11.64
780.9814,-13.14
781.8253,-16.33
782.6693,-21.12
783.5135,-13.94
784.3581,-7.29
785.2029,-3.12
786.0479,-13.61
786.8931,17.49
787.7386,-11.21
788.5844,-13.53
789.4303,0.95
790.2766,-5.73
791.1230,-17.39
791.9697,-11.27
792.8166,-16.07
793.6638,-12.29
794.5112,-6.58
795.3589,-3.57
796.2068,-8.50
797.0549,-6.68
797.9033,-17.81
798.7519,-18.03
799.6007,-11.83
800.4498,-5.45
